17,    channel 17 SRF extracted from pub.rar (FY3D_MERSI_SRF_CH17_Pub.txt) (received October 2018)
Number of data points:
96
Wavenumber (cm-1)   Filter response
    10422.094800       0.009460
    10427.528700       0.010573
    10432.968200       0.012243
    10438.413400       0.013912
    10443.864200       0.016138
    10449.320800       0.017807
    10454.783100       0.021703
    10460.251000       0.025042
    10465.724800       0.030607
    10471.204200       0.036171
    10476.689400       0.043962
    10482.180300       0.051753
    10487.677000       0.065665
    10493.179400       0.079021
    10498.687700       0.099054
    10504.201700       0.118531
    10509.721500       0.150807
    10515.247100       0.182526
    10520.778500       0.224263
    10526.315800       0.265442
    10531.858900       0.321091
    10537.407800       0.376183
    10542.962600       0.437396
    10548.523200       0.498052
    10554.089700       0.555927
    10559.662100       0.613801
    10565.240400       0.671119
    10570.824500       0.728436
    10576.414600       0.770173
    10582.010600       0.811909
    10587.612500       0.845854
    10593.220300       0.879243
    10598.834100       0.891486
    10604.453900       0.903172
    10610.079600       0.903728
    10615.711300       0.904285
    10621.348900       0.911519
    10626.992600       0.918753
    10632.642200       0.922092
    10638.297900       0.925431
    10643.959600       0.930440
    10649.627300       0.934891
    10655.301000       0.945465
    10660.980800       0.955481
    10666.666700       0.960490
    10672.358600       0.965498
    10678.056600       0.971619
    10683.760700       0.977741
    10689.470900       0.988314
    10695.187200       0.998887
    10700.909600       0.999444
    10706.638100       1.000000
    10712.372800       0.994435
    10718.113600       0.988314
    10723.860600       0.975515
    10729.613700       0.962159
    10735.373100       0.939343
    10741.138600       0.915971
    10746.910300       0.876461
    10752.688200       0.836394
    10758.472300       0.784641
    10764.262600       0.732332
    10770.059200       0.681135
    10775.862100       0.629382
    10781.671200       0.573178
    10787.486500       0.516416
    10793.308100       0.467446
    10799.136100       0.417919
    10804.970300       0.371731
    10810.810800       0.324986
    10816.657700       0.289928
    10822.510800       0.254313
    10828.370300       0.226489
    10834.236200       0.198664
    10840.108400       0.174179
    10845.987000       0.149694
    10851.871900       0.131330
    10857.763300       0.112410
    10863.661100       0.098498
    10869.565200       0.082916
    10875.475800       0.075125
    10881.392800       0.067334
    10887.316300       0.059544
    10893.246200       0.051753
    10899.182600       0.043962
    10905.125400       0.036171
    10911.074700       0.032276
    10917.030600       0.027824
    10922.992900       0.024485
    10928.961700       0.020590
    10934.937100       0.017807
    10940.919000       0.015025
    10946.907500       0.013912
    10952.902500       0.012243
    10958.904100       0.010573
    10964.912300       0.000000
