19,    channel 19 SRF extracted from pub.rar (FY3D_MERSI_SRF_CH19_Pub.txt) (received October 2018)
Number of data points:
94
Wavenumber (cm-1)   Filter response
     9496.676200       0.000000
     9501.187600       0.010302
     9505.703400       0.011773
     9510.223500       0.014717
     9514.747900       0.016924
     9519.276500       0.019868
     9523.809500       0.022811
     9528.346800       0.027962
     9532.888500       0.032377
     9537.434400       0.038999
     9541.984700       0.044886
     9546.539400       0.053716
     9551.098400       0.062546
     9555.661700       0.076527
     9560.229400       0.090508
     9564.801500       0.108904
     9569.378000       0.126564
     9573.958800       0.150846
     9578.544100       0.175129
     9583.133700       0.206034
     9587.727700       0.236939
     9592.326100       0.271523
     9596.929000       0.306107
     9601.536200       0.344371
     9606.147900       0.382634
     9610.764100       0.423105
     9615.384600       0.462840
     9620.009600       0.502575
     9624.639100       0.542311
     9629.273000       0.579838
     9633.911400       0.616630
     9638.554200       0.649007
     9643.201500       0.680648
     9647.853400       0.711553
     9652.509700       0.742458
     9657.170400       0.768212
     9661.835700       0.793230
     9666.505600       0.815305
     9671.179900       0.837380
     9675.858700       0.857984
     9680.542100       0.878587
     9685.230000       0.891832
     9689.922500       0.904341
     9694.619500       0.917586
     9699.321000       0.930831
     9704.027200       0.943341
     9708.737900       0.955850
     9713.453100       0.966152
     9718.173000       0.976453
     9722.897400       0.987491
     9727.626500       0.997792
     9732.360100       0.999264
     9737.098300       1.000000
     9741.841200       0.991906
     9746.588700       0.983076
     9751.340800       0.964680
     9756.097600       0.946284
     9760.859000       0.913171
     9765.625000       0.880059
     9770.395700       0.836645
     9775.171100       0.793230
     9779.951100       0.735835
     9784.735800       0.677704
     9789.525200       0.621045
     9794.319300       0.564386
     9799.118100       0.506990
     9803.921600       0.448859
     9808.729800       0.396615
     9813.542700       0.343635
     9818.360300       0.300957
     9823.182700       0.258278
     9828.009800       0.225901
     9832.841700       0.192789
     9837.678300       0.168506
     9842.519700       0.143488
     9847.365800       0.125828
     9852.216700       0.108168
     9857.072400       0.093451
     9861.932900       0.077999
     9866.798200       0.067697
     9871.668300       0.057395
     9876.543200       0.050773
     9881.422900       0.043414
     9886.307500       0.036792
     9891.196800       0.030169
     9896.091000       0.026490
     9900.990100       0.022811
     9905.894000       0.019868
     9910.802800       0.016924
     9915.716400       0.015453
     9920.634900       0.013245
     9925.558300       0.011773
     9930.486600       0.009566
     9935.419800       0.000000
